     Time	    Pos x	    Pos y	    Angle	Diff Time	Diff Posx	Diff Posy	Diff Angl	Diff Leng	Rel Speed	Rel AnSpd	
     0.00	 -1347.18	  -540.41	     0.00	     0.00	     0.00	     0.00	     0.00	     0.00	     0.00	     0.00
    20.37	 -1341.62	  -540.33	     0.03	    20.37	     5.56	     0.08	     0.03	     5.56	   272.98	     1.47
    81.51	 -1334.56	  -546.57	     0.12	    61.14	     7.06	    -6.24	     0.09	     9.42	   154.11	     1.47
   100.86	 -1329.02	  -545.08	     0.16	    19.35	     5.54	     1.49	     0.04	     5.74	   296.48	     2.07
   140.40	 -1316.57	  -540.67	     0.09	    39.54	    12.45	     4.41	    -0.07	    13.21	   334.04	    -1.77
   160.45	 -1312.40	  -540.61	     0.12	    20.05	     4.17	     0.06	     0.03	     4.17	   208.00	     1.50
   200.36	 -1303.99	  -544.72	     0.23	    39.91	     8.41	    -4.11	     0.11	     9.36	   234.54	     2.76
   220.45	 -1298.50	  -540.41	     0.15	    20.09	     5.49	     4.31	    -0.08	     6.98	   347.42	    -3.98
   240.49	 -1288.68	  -545.90	     0.29	    20.04	     9.82	    -5.49	     0.14	    11.25	   561.40	     6.99
   261.40	 -1283.28	  -535.96	     0.15	    20.91	     5.40	     9.94	    -0.14	    11.31	   540.99	    -6.70
   301.23	 -1273.55	  -535.82	     0.19	    39.83	     9.73	     0.14	     0.04	     9.73	   244.31	     1.00
   321.24	 -1266.58	  -537.12	     0.22	    20.01	     6.97	    -1.30	     0.03	     7.09	   354.33	     1.50
   341.92	 -1258.24	  -537.00	     0.26	    20.68	     8.34	     0.12	     0.04	     8.34	   403.33	     1.93
   362.51	 -1248.56	  -534.04	     0.27	    20.59	     9.68	     2.96	     0.01	    10.12	   491.62	     0.49
   401.43	 -1240.98	  -529.70	     0.20	    38.92	     7.58	     4.34	    -0.07	     8.73	   224.42	    -1.80
   421.56	 -1230.59	  -528.14	     0.23	    20.13	    10.39	     1.56	     0.03	    10.51	   521.93	     1.49
   441.94	 -1223.62	  -529.45	     0.31	    20.38	     6.97	    -1.31	     0.08	     7.09	   347.99	     3.93
   481.10	 -1215.35	  -525.10	     0.27	    39.16	     8.27	     4.35	    -0.04	     9.34	   238.62	    -1.02
   501.18	 -1204.17	  -529.17	     0.38	    20.08	    11.18	    -4.07	     0.11	    11.90	   592.52	     5.48
   522.53	 -1197.39	  -519.20	     0.27	    21.35	     6.78	     9.97	    -0.11	    12.06	   564.73	    -5.15
   542.70	 -1187.00	  -516.93	     0.31	    20.17	    10.39	     2.27	     0.04	    10.64	   527.27	     1.98
   582.03	 -1178.01	  -514.69	     0.30	    39.33	     8.99	     2.24	    -0.01	     9.26	   235.57	    -0.25
   602.02	 -1168.35	  -511.02	     0.31	    19.99	     9.66	     3.67	     0.01	    10.33	   516.94	     0.50
   622.17	 -1158.60	  -512.29	     0.37	    20.15	     9.75	    -1.27	     0.06	     9.83	   487.96	     2.98
   642.45	 -1148.98	  -505.80	     0.36	    20.28	     9.62	     6.49	    -0.01	    11.60	   572.21	    -0.49
   681.99	 -1139.28	  -504.25	     0.36	    39.54	     9.70	     1.55	     0.00	     9.82	   248.43	     0.00
   702.70	 -1129.61	  -501.29	     0.37	    20.71	     9.67	     2.96	     0.01	    10.11	   488.31	     0.48
   741.10	 -1121.32	  -498.34	     0.38	    38.40	     8.29	     2.95	     0.01	     8.80	   229.15	     0.26
   761.10	 -1110.26	  -495.36	     0.42	    20.00	    11.06	     2.98	     0.04	    11.45	   572.72	     2.00
   781.36	 -1103.39	  -491.03	     0.38	    20.26	     6.87	     4.33	    -0.04	     8.12	   400.82	    -1.97
   802.26	 -1092.35	  -486.63	     0.39	    20.90	    11.04	     4.40	     0.01	    11.88	   568.64	     0.48
   822.26	 -1084.07	  -482.98	     0.39	    20.00	     8.28	     3.65	     0.00	     9.05	   452.44	     0.00
   861.12	 -1072.96	  -482.82	     0.47	    38.86	    11.11	     0.16	     0.08	    11.11	   285.93	     2.06
   881.10	 -1061.93	  -477.72	     0.47	    19.98	    11.03	     5.10	     0.00	    12.15	   608.21	     0.00
   901.64	 -1053.66	  -473.36	     0.50	    20.54	     8.27	     4.36	     0.03	     9.35	   455.16	     1.46
   922.92	 -1045.44	  -466.89	     0.40	    21.28	     8.22	     6.47	    -0.10	    10.46	   491.58	    -4.70
   962.40	 -1035.78	  -462.51	     0.42	    39.48	     9.66	     4.38	     0.02	    10.61	   268.66	     0.51
   982.56	 -1026.09	  -460.25	     0.47	    20.16	     9.69	     2.26	     0.05	     9.95	   493.55	     2.48
  1003.12	 -1017.80	  -457.30	     0.51	    20.56	     8.29	     2.95	     0.04	     8.80	   427.98	     1.95
  1041.44	 -1006.76	  -452.19	     0.53	    38.32	    11.04	     5.11	     0.02	    12.17	   317.47	     0.52
  1062.21	  -997.16	  -444.99	     0.48	    20.77	     9.60	     7.20	    -0.05	    12.00	   577.76	    -2.41
  1082.54	  -988.89	  -440.63	     0.49	    20.33	     8.27	     4.36	     0.01	     9.35	   459.86	     0.49
  1121.78	  -980.63	  -435.56	     0.51	    39.24	     8.26	     5.07	     0.02	     9.69	   246.99	     0.51
  1142.37	  -969.55	  -432.57	     0.55	    20.59	    11.08	     2.99	     0.04	    11.48	   557.37	     1.94
  1162.86	  -962.01	  -426.10	     0.52	    20.49	     7.54	     6.47	    -0.03	     9.94	   484.89	    -1.46
  1207.38	  -942.02	  -415.20	     0.54	    44.52	    19.99	    10.90	     0.02	    22.77	   511.42	     0.45
  1242.63	  -932.31	  -413.63	     0.63	    35.25	     9.71	     1.57	     0.09	     9.84	   279.04	     2.55
  1263.15	  -922.64	  -409.24	     0.60	    20.52	     9.67	     4.39	    -0.03	    10.62	   517.54	    -1.46
  1283.19	  -915.80	  -402.07	     0.57	    20.04	     6.84	     7.17	    -0.03	     9.91	   494.48	    -1.50
  1322.09	  -905.42	  -398.37	     0.63	    38.90	    10.38	     3.70	     0.06	    11.02	   283.28	     1.54
  1342.48	  -899.28	  -391.21	     0.57	    20.39	     6.14	     7.16	    -0.06	     9.43	   462.59	    -2.94
  1362.62	  -892.40	  -386.16	     0.57	    20.14	     6.88	     5.05	     0.00	     8.53	   423.76	     0.00
  1383.72	  -886.89	  -382.53	     0.55	    21.10	     5.51	     3.63	    -0.02	     6.60	   312.71	    -0.95
  1421.84	  -879.98	  -378.89	     0.58	    38.12	     6.91	     3.64	     0.03	     7.81	   204.88	     0.79
  1442.72	  -873.76	  -375.96	     0.60	    20.88	     6.22	     2.93	     0.02	     6.88	   329.29	     0.96
  1463.61	  -869.66	  -371.65	     0.59	    20.89	     4.10	     4.31	    -0.01	     5.95	   284.76	    -0.48
  1483.71	  -864.83	  -368.75	     0.60	    20.10	     4.83	     2.90	     0.01	     5.63	   280.29	     0.50
  1522.10	  -860.67	  -367.26	     0.62	    38.39	     4.16	     1.49	     0.02	     4.42	   115.10	     0.52
  1543.75	  -855.87	  -362.94	     0.57	    21.65	     4.80	     4.32	    -0.05	     6.46	   298.28	    -2.31
  1563.91	  -852.40	  -361.47	     0.62	    20.16	     3.47	     1.47	     0.05	     3.77	   186.93	     2.48
  1601.70	  -849.67	  -358.60	     0.60	    37.79	     2.73	     2.87	    -0.02	     3.96	   104.82	    -0.53
  1622.49	  -845.48	  -358.53	     0.67	    20.79	     4.19	     0.07	     0.07	     4.19	   201.57	     3.37
  1643.49	  -843.46	  -354.25	     0.59	    21.00	     2.02	     4.28	    -0.08	     4.73	   225.37	    -3.81
  1663.48	  -839.99	  -353.49	     0.63	    19.99	     3.47	     0.76	     0.04	     3.55	   177.70	     2.00
  1703.39	  -838.61	  -352.76	     0.62	    39.91	     1.38	     0.73	    -0.01	     1.56	    39.12	    -0.25
  1723.46	  -837.24	  -351.32	     0.62	    20.07	     1.37	     1.44	     0.00	     1.99	    99.03	     0.00
  1743.66	  -835.89	  -348.47	     0.58	    20.20	     1.35	     2.85	    -0.04	     3.15	   156.12	    -1.98
  1763.66	  -833.80	  -348.43	     0.57	    20.00	     2.09	     0.04	    -0.01	     2.09	   104.52	    -0.50
  1802.44	  -833.80	  -348.43	     0.60	    38.78	     0.00	     0.00	     0.03	     0.00	     0.00	     0.77
  1822.46	  -833.13	  -347.01	     0.60	    20.02	     0.67	     1.42	     0.00	     1.57	    78.43	     0.00
  1843.50	  -831.72	  -347.69	     0.63	    21.04	     1.41	    -0.68	     0.03	     1.57	    74.40	     1.43
  1882.38	  -831.75	  -345.57	     0.61	    38.88	    -0.03	     2.12	    -0.02	     2.12	    54.53	    -0.51
  1903.32	  -831.70	  -348.40	     0.62	    20.94	     0.05	    -2.83	     0.01	     2.83	  -135.17	     0.48
  1923.36	  -830.33	  -346.96	     0.62	    20.04	     1.37	     1.44	     0.00	     1.99	    99.18	     0.00
  1943.30	  -831.73	  -346.98	     0.61	    19.94	    -1.40	    -0.02	    -0.01	     1.40	   -70.22	    -0.50
